              freq (Hz)                        n                        k
9.284374667079591250e+14 3.512000000000000011e+00 1.905000000000000027e+00
9.187632791909287500e+14 3.500999999999999890e+00 1.909000000000000030e+00
9.043513061840120000e+14 3.487999999999999989e+00 1.919999999999999929e+00
8.946358042375411250e+14 3.484999999999999876e+00 1.931000000000000050e+00
8.801892483852025000e+14 3.488999999999999879e+00 1.949999999999999956e+00
8.704775203252032500e+14 3.495000000000000107e+00 1.965000000000000080e+00
8.560607024557396250e+14 3.512999999999999901e+00 1.991999999999999993e+00
8.463931620553360000e+14 3.531000000000000139e+00 2.012999999999999901e+00
8.414045972495088750e+14 3.540999999999999925e+00 2.024000000000000021e+00
8.367079486463857500e+14 3.552999999999999936e+00 2.036000000000000032e+00
8.318325693673696250e+14 3.565999999999999837e+00 2.048999999999999932e+00
8.270136772413793750e+14 3.580000000000000071e+00 2.061999999999999833e+00
8.220248368522072500e+14 3.596000000000000085e+00 2.076000000000000068e+00
8.173185877862596250e+14 3.613999999999999879e+00 2.091000000000000192e+00
8.124456856368563750e+14 3.634999999999999787e+00 2.107000000000000206e+00
8.076305441810346250e+14 3.657000000000000028e+00 2.123000000000000220e+00
8.028721424745581250e+14 3.681000000000000050e+00 2.141999999999999904e+00
7.979570348682460000e+14 3.709000000000000075e+00 2.161999999999999922e+00
7.931017407407407500e+14 3.740000000000000213e+00 2.182999999999999829e+00
7.883051748619511250e+14 3.775999999999999801e+00 2.206999999999999851e+00
7.833615312255031250e+14 3.818000000000000060e+00 2.232000000000000206e+00
7.786817090909091250e+14 3.870999999999999996e+00 2.259999999999999787e+00
7.736579561290322500e+14 3.938000000000000167e+00 2.287999999999999812e+00
7.688957630161580000e+14 4.022999999999999687e+00 2.306999999999999940e+00
7.639970897043832500e+14 4.126000000000000334e+00 2.303999999999999826e+00
7.591604406178780000e+14 4.229000000000000092e+00 2.270000000000000018e+00
7.543846451937595000e+14 4.312999999999999723e+00 2.212000000000000188e+00
7.494811450000000000e+14 4.373000000000000220e+00 2.145999999999999908e+00
7.448259826086956250e+14 4.413000000000000256e+00 2.081999999999999851e+00
7.398629269496545000e+14 4.439000000000000057e+00 2.028999999999999915e+00
7.351458018636586250e+14 4.461999999999999744e+00 1.987999999999999989e+00
7.303104945188795000e+14 4.482999999999999652e+00 1.961000000000000076e+00
7.253628308734576250e+14 4.509000000000000341e+00 1.947999999999999954e+00
7.204817543859648750e+14 4.549999999999999822e+00 1.951999999999999957e+00
7.156659298161852500e+14 4.626000000000000334e+00 1.967000000000000082e+00
7.109140573867677500e+14 4.754999999999999893e+00 1.959999999999999964e+00
7.060585445124823750e+14 4.916999999999999815e+00 1.885000000000000009e+00
7.012689076023392500e+14 5.051999999999999602e+00 1.721000000000000085e+00
6.963820162601626250e+14 5.107000000000000206e+00 1.528999999999999915e+00
6.915627635524798750e+14 5.102000000000000313e+00 1.352999999999999980e+00
6.866524461749886250e+14 5.065000000000000391e+00 1.205999999999999961e+00
6.818113668410280000e+14 5.014999999999999680e+00 1.088000000000000078e+00
6.770380713640470000e+14 4.958999999999999631e+00 9.909999999999999920e-01
6.721803991031390000e+14 4.902000000000000135e+00 9.120000000000000329e-01
6.673919367764916250e+14 4.844999999999999751e+00 8.459999999999999742e-01
6.625247690607735000e+14 4.793000000000000149e+00 7.890000000000000346e-01
6.577280781044318750e+14 4.740999999999999659e+00 7.389999999999999902e-01
6.528581402439025000e+14 4.693999999999999950e+00 6.959999999999999520e-01
6.480597881539127500e+14 4.649000000000000021e+00 6.590000000000000302e-01
6.431934305942931250e+14 4.605000000000000426e+00 6.260000000000000009e-01
6.383996124361158750e+14 4.567000000000000171e+00 5.949999999999999734e-01
6.335428106508876250e+14 4.525000000000000355e+00 5.689999999999999503e-01
6.286275068148460000e+14 4.491999999999999993e+00 5.390000000000000346e-01
6.237878859758635000e+14 4.456000000000000405e+00 5.170000000000000151e-01
6.190222135040265000e+14 4.423000000000000043e+00 4.969999999999999973e-01
6.142029461175990000e+14 4.392000000000000348e+00 4.759999999999999787e-01
6.093342642276422500e+14 4.362000000000000099e+00 4.580000000000000182e-01
6.045421617261545000e+14 4.333000000000000185e+00 4.410000000000000031e-01
5.997048569713943750e+14 4.304999999999999716e+00 4.259999999999999898e-01
5.948263055555556250e+14 4.278999999999999915e+00 4.109999999999999765e-01
5.900264869120252500e+14 4.253999999999999559e+00 3.980000000000000204e-01
5.851892601991021250e+14 4.229000000000000092e+00 3.850000000000000089e-01
5.803183468834688750e+14 4.205000000000000071e+00 3.709999999999999964e-01
5.755278517949702500e+14 4.182999999999999829e+00 3.589999999999999858e-01
5.705985116102017500e+14 4.161999999999999922e+00 3.469999999999999751e-01
5.657528929986790000e+14 4.141000000000000014e+00 3.370000000000000218e-01
5.609888809880240625e+14 4.120000000000000107e+00 3.270000000000000129e-01
5.560980485995177500e+14 4.099999999999999645e+00 3.200000000000000067e-01
5.512917579992645625e+14 4.081999999999999851e+00 3.079999999999999960e-01
5.464682063434196875e+14 4.062999999999999723e+00 3.009999999999999898e-01
5.416304570912376250e+14 4.044999999999999929e+00 2.939999999999999836e-01
5.367814825425246875e+14 4.028999999999999915e+00 2.849999999999999756e-01
5.319241625266146250e+14 4.012999999999999901e+00 2.760000000000000231e-01
5.271539616669597500e+14 3.998000000000000220e+00 2.660000000000000142e-01
5.222865121951220000e+14 3.983000000000000096e+00 2.570000000000000062e-01
5.174188091128753750e+14 3.967999999999999972e+00 2.510000000000000009e-01
5.126410020519835625e+14 3.954000000000000181e+00 2.449999999999999956e-01
5.077785535230352500e+14 3.939999999999999947e+00 2.399999999999999911e-01
5.029230967958396875e+14 3.927000000000000046e+00 2.320000000000000118e-01
4.980768532978900000e+14 3.914000000000000146e+00 2.280000000000000082e-01
4.932419512997696250e+14 3.902000000000000135e+00 2.230000000000000038e-01
4.884204268491365625e+14 3.890000000000000124e+00 2.129999999999999949e-01
4.836142248749798750e+14 3.878000000000000114e+00 2.109999999999999931e-01
4.787487352283616250e+14 3.866999999999999993e+00 2.030000000000000138e-01
4.739052450205501250e+14 3.855999999999999872e+00 1.960000000000000075e-01
4.690853669222344375e+14 3.846000000000000085e+00 1.869999999999999996e-01
4.642187333539795625e+14 3.835999999999999854e+00 1.829999999999999960e-01
4.593816395954643750e+14 3.826000000000000068e+00 1.789999999999999925e-01
4.545753722517058125e+14 3.817000000000000171e+00 1.729999999999999871e-01
4.497336603660366875e+14 3.809000000000000163e+00 1.729999999999999871e-01
4.449279578509944375e+14 3.798999999999999932e+00 1.680000000000000104e-01
4.400946241926012500e+14 3.791999999999999815e+00 1.580000000000000016e-01
4.352387601626016250e+14 3.785000000000000142e+00 1.509999999999999953e-01
4.304270753768844375e+14 3.778999999999999915e+00 1.519999999999999962e-01
4.255393300212916875e+14 3.771999999999999797e+00 1.340000000000000080e-01
4.207022986247544375e+14 3.762000000000000011e+00 1.270000000000000018e-01
4.159162846836848125e+14 3.751999999999999780e+00 1.179999999999999938e-01
4.110687755381873125e+14 3.741999999999999993e+00 1.120000000000000023e-01
4.062228428184281875e+14 3.733999999999999986e+00 1.049999999999999961e-01
4.013823242736645000e+14 3.725000000000000089e+00 1.010000000000000064e-01
3.965508703703703750e+14 3.716000000000000192e+00 9.700000000000000289e-02
3.917319456422318750e+14 3.706999999999999851e+00 9.299999999999999933e-02
3.868788979223125625e+14 3.700000000000000178e+00 9.099999999999999756e-02
3.820472256913470625e+14 3.693000000000000060e+00 8.899999999999999578e-02
3.771923225968797500e+14 3.685000000000000053e+00 8.699999999999999400e-02
3.723667345671345000e+14 3.678999999999999826e+00 8.500000000000000611e-02
3.675278386661763125e+14 3.672000000000000153e+00 8.300000000000000433e-02
3.626814154367288125e+14 3.665999999999999925e+00 8.000000000000000167e-02
3.602841701718543750e+14 3.613999999999999879e+00 7.889999999999999791e-02
3.578756810313955000e+14 3.613999999999999879e+00 7.280000000000000249e+00
3.554570286933838750e+14 3.613999999999999879e+00 6.860000000000000320e+00
3.530292722562411875e+14 3.613999999999999879e+00 6.639999999999999680e+00
3.505934487194480000e+14 3.613999999999999879e+00 6.280000000000000249e+00
3.481910081300813125e+14 3.613999999999999879e+00 6.120000000000000107e+00
3.469820115740741250e+14 3.613999999999999879e+00 5.679999999999999716e+00
3.457813817762399375e+14 3.613999999999999879e+00 5.570000000000000284e+00
3.445890321839080625e+14 3.613999999999999879e+00 5.719999999999999751e+00
3.433655457564998750e+14 3.613999999999999879e+00 5.540000000000000036e+00
3.409444535425907500e+14 3.613999999999999879e+00 2.709999999999999909e-02
3.385190356820235000e+14 3.613999999999999879e+00 5.950000000000000427e-03
3.360901995515695000e+14 3.613999999999999879e+00 1.690000000000000096e-03
3.336959683882458125e+14 3.613999999999999879e+00 5.680000000000000370e-04
3.312623845303867500e+14 3.613999999999999879e+00 2.500000000000000052e-04
3.264290701219512500e+14 3.568999999999999950e+00 1.330000000000000073e-04
3.143467107056726875e+14 3.538800000000000168e+00 0.000000000000000000e+00
3.022406069160197500e+14 3.513799999999999812e+00 0.000000000000000000e+00
2.902153514036786250e+14 3.491999999999999993e+00 0.000000000000000000e+00
2.781006103896103750e+14 3.472399999999999931e+00 0.000000000000000000e+00
2.660092795031055938e+14 3.454600000000000115e+00 0.000000000000000000e+00
2.538462811176968750e+14 3.438299999999999912e+00 0.000000000000000000e+00
2.417681112903225938e+14 3.423200000000000021e+00 0.000000000000000000e+00
2.297260214559387500e+14 3.409400000000000208e+00 0.000000000000000000e+00
2.175562104499274688e+14 3.396500000000000075e+00 0.000000000000000000e+00
2.054780383824537500e+14 3.384700000000000042e+00 0.000000000000000000e+00
1.934144890322580625e+14 3.373699999999999921e+00 0.000000000000000000e+00
1.813626485178463438e+14 3.363599999999999923e+00 0.000000000000000000e+00
1.692786324110672188e+14 3.354299999999999837e+00 0.000000000000000000e+00
1.572063230204509688e+14 3.345699999999999896e+00 0.000000000000000000e+00
